k a(k) 
  0.100072E-10  0.538192E-05
  0.100191E-10  0.537937E-05
  0.100311E-10  0.537653E-05
  0.100431E-10  0.537348E-05
  0.100551E-10  0.537031E-05
  0.100671E-10  0.536711E-05
  0.100792E-10  0.536397E-05
  0.100912E-10  0.536099E-05
  0.101033E-10  0.535826E-05
  0.101154E-10  0.535585E-05
  0.101274E-10  0.535387E-05
  0.101396E-10  0.535237E-05
  0.101517E-10  0.535144E-05
  0.101638E-10  0.535113E-05
  0.101760E-10  0.535150E-05
  0.101881E-10  0.535259E-05
  0.102003E-10  0.535444E-05
  0.102125E-10  0.535707E-05
  0.102247E-10  0.536048E-05
  0.102369E-10  0.536468E-05
  0.102492E-10  0.536966E-05
  0.102614E-10  0.537538E-05
  0.102737E-10  0.538182E-05
  0.102859E-10  0.538893E-05
  0.102982E-10  0.539666E-05
  0.103106E-10  0.540492E-05
  0.103229E-10  0.541366E-05
  0.103352E-10  0.542279E-05
  0.103476E-10  0.543222E-05
  0.103599E-10  0.544186E-05
  0.103723E-10  0.545160E-05
  0.103847E-10  0.546136E-05
  0.103971E-10  0.547103E-05
  0.104096E-10  0.548051E-05
  0.104220E-10  0.548971E-05
  0.104345E-10  0.549853E-05
  0.104469E-10  0.550689E-05
  0.104594E-10  0.551470E-05
  0.104719E-10  0.552190E-05
  0.104844E-10  0.552842E-05
  0.104970E-10  0.553421E-05
  0.105095E-10  0.553922E-05
  0.105221E-10  0.554344E-05
  0.105347E-10  0.554684E-05
  0.105472E-10  0.554941E-05
  0.105599E-10  0.555118E-05
  0.105725E-10  0.555215E-05
  0.105851E-10  0.555237E-05
  0.105978E-10  0.555188E-05
  0.106104E-10  0.555074E-05
  0.106231E-10  0.554902E-05
  0.106358E-10  0.554680E-05
  0.106485E-10  0.554417E-05
  0.106613E-10  0.554122E-05
  0.106740E-10  0.553805E-05
  0.106868E-10  0.553476E-05
  0.106995E-10  0.553147E-05
  0.107123E-10  0.552828E-05
  0.107251E-10  0.552530E-05
  0.107379E-10  0.552263E-05
  0.107508E-10  0.552037E-05
  0.107636E-10  0.551861E-05
  0.107765E-10  0.551743E-05
  0.107894E-10  0.551692E-05
  0.108023E-10  0.551714E-05
  0.108152E-10  0.551814E-05
  0.108281E-10  0.551996E-05
  0.108411E-10  0.552263E-05
  0.108540E-10  0.552616E-05
  0.108670E-10  0.553055E-05
  0.108800E-10  0.553579E-05
  0.108930E-10  0.554184E-05
  0.109060E-10  0.554866E-05
  0.109190E-10  0.555620E-05
  0.109321E-10  0.556438E-05
  0.109452E-10  0.557312E-05
  0.109582E-10  0.558234E-05
  0.109713E-10  0.559193E-05
  0.109844E-10  0.560178E-05
  0.109976E-10  0.561180E-05
  0.110107E-10  0.562185E-05
  0.110239E-10  0.563184E-05
  0.110371E-10  0.564163E-05
  0.110503E-10  0.565112E-05
  0.110635E-10  0.566021E-05
  0.110767E-10  0.566879E-05
  0.110899E-10  0.567676E-05
  0.111032E-10  0.568406E-05
  0.111165E-10  0.569060E-05
  0.111297E-10  0.569633E-05
  0.111430E-10  0.570121E-05
  0.111564E-10  0.570520E-05
  0.111697E-10  0.570830E-05
  0.111831E-10  0.571050E-05
  0.111964E-10  0.571183E-05
  0.112098E-10  0.571233E-05
  0.112232E-10  0.571203E-05
  0.112366E-10  0.571100E-05
  0.112500E-10  0.570933E-05
  0.112635E-10  0.570710E-05
  0.112770E-10  0.570441E-05
  0.112904E-10  0.570137E-05
  0.113039E-10  0.569809E-05
  0.113174E-10  0.569471E-05
  0.113310E-10  0.569133E-05
  0.113445E-10  0.568809E-05
  0.113581E-10  0.568511E-05
  0.113716E-10  0.568250E-05
  0.113852E-10  0.568038E-05
  0.113989E-10  0.567884E-05
  0.114125E-10  0.567799E-05
  0.114261E-10  0.567791E-05
  0.114398E-10  0.567865E-05
  0.114534E-10  0.568027E-05
  0.114671E-10  0.568281E-05
  0.114808E-10  0.568629E-05
  0.114946E-10  0.569070E-05
  0.115083E-10  0.569604E-05
  0.115221E-10  0.570226E-05
  0.115358E-10  0.570932E-05
  0.115496E-10  0.571715E-05
  0.115634E-10  0.572567E-05
  0.115773E-10  0.573478E-05
  0.115911E-10  0.574438E-05
  0.116049E-10  0.575435E-05
  0.116188E-10  0.576456E-05
  0.116327E-10  0.577489E-05
  0.116466E-10  0.578520E-05
  0.116605E-10  0.579537E-05
  0.116745E-10  0.580526E-05
  0.116884E-10  0.581474E-05
  0.117024E-10  0.582370E-05
  0.117164E-10  0.583203E-05
  0.117304E-10  0.583964E-05
  0.117444E-10  0.584643E-05
  0.117584E-10  0.585235E-05
  0.117725E-10  0.585733E-05
  0.117866E-10  0.586136E-05
  0.118007E-10  0.586442E-05
  0.118148E-10  0.586651E-05
  0.118289E-10  0.586765E-05
  0.118430E-10  0.586790E-05
  0.118572E-10  0.586731E-05
  0.118714E-10  0.586597E-05
  0.118855E-10  0.586396E-05
  0.118997E-10  0.586141E-05
  0.119140E-10  0.585842E-05
  0.119282E-10  0.585512E-05
  0.119425E-10  0.585167E-05
  0.119567E-10  0.584819E-05
  0.119710E-10  0.584482E-05
  0.119853E-10  0.584171E-05
  0.119997E-10  0.583900E-05
  0.120140E-10  0.583681E-05
  0.120284E-10  0.583525E-05
  0.120428E-10  0.583444E-05
  0.120571E-10  0.583447E-05
  0.120716E-10  0.583541E-05
  0.120860E-10  0.583731E-05
  0.121004E-10  0.584021E-05
  0.121149E-10  0.584413E-05
  0.121294E-10  0.584906E-05
  0.121439E-10  0.585498E-05
  0.121584E-10  0.586183E-05
  0.121729E-10  0.586954E-05
  0.121875E-10  0.587804E-05
  0.122020E-10  0.588722E-05
  0.122166E-10  0.589696E-05
  0.122312E-10  0.590713E-05
  0.122459E-10  0.591758E-05
  0.122605E-10  0.592818E-05
  0.122751E-10  0.593878E-05
  0.122898E-10  0.594921E-05
  0.123045E-10  0.595934E-05
  0.123192E-10  0.596901E-05
  0.123339E-10  0.597811E-05
  0.123487E-10  0.598649E-05
  0.123634E-10  0.599407E-05
  0.123782E-10  0.600075E-05
  0.123930E-10  0.600645E-05
  0.124078E-10  0.601114E-05
  0.124227E-10  0.601478E-05
  0.124375E-10  0.601736E-05
  0.124524E-10  0.601892E-05
  0.124673E-10  0.601948E-05
  0.124822E-10  0.601912E-05
  0.124971E-10  0.601792E-05
  0.125120E-10  0.601598E-05
  0.125270E-10  0.601342E-05
  0.125419E-10  0.601039E-05
  0.125569E-10  0.600701E-05
  0.125719E-10  0.600346E-05
  0.125870E-10  0.599990E-05
  0.126020E-10  0.599647E-05
  0.126171E-10  0.599335E-05
  0.126322E-10  0.599068E-05
  0.126473E-10  0.598861E-05
  0.126624E-10  0.598726E-05
  0.126775E-10  0.598676E-05
  0.126927E-10  0.598719E-05
  0.127078E-10  0.598864E-05
  0.127230E-10  0.599116E-05
  0.127382E-10  0.599476E-05
  0.127535E-10  0.599946E-05
  0.127687E-10  0.600524E-05
  0.127840E-10  0.601203E-05
  0.127993E-10  0.601979E-05
  0.128145E-10  0.602840E-05
  0.128299E-10  0.603775E-05
  0.128452E-10  0.604772E-05
  0.128606E-10  0.605815E-05
  0.128759E-10  0.606889E-05
  0.128913E-10  0.607977E-05
  0.129067E-10  0.609061E-05
  0.129222E-10  0.610125E-05
  0.129376E-10  0.611152E-05
  0.129531E-10  0.612126E-05
  0.129685E-10  0.613033E-05
  0.129840E-10  0.613858E-05
  0.129996E-10  0.614592E-05
  0.130151E-10  0.615225E-05
  0.130307E-10  0.615750E-05
  0.130462E-10  0.616163E-05
  0.130618E-10  0.616462E-05
  0.130774E-10  0.616650E-05
  0.130931E-10  0.616730E-05
  0.131087E-10  0.616708E-05
  0.131244E-10  0.616595E-05
  0.131401E-10  0.616400E-05
  0.131558E-10  0.616139E-05
  0.131715E-10  0.615827E-05
  0.131873E-10  0.615479E-05
  0.132030E-10  0.615114E-05
  0.132188E-10  0.614750E-05
  0.132346E-10  0.614405E-05
  0.132504E-10  0.614097E-05
  0.132663E-10  0.613842E-05
  0.132821E-10  0.613656E-05
  0.132980E-10  0.613555E-05
  0.133139E-10  0.613548E-05
  0.133298E-10  0.613647E-05
  0.133457E-10  0.613858E-05
  0.133617E-10  0.614186E-05
  0.133777E-10  0.614632E-05
  0.133936E-10  0.615194E-05
  0.134097E-10  0.615867E-05
  0.134257E-10  0.616645E-05
  0.134417E-10  0.617516E-05
  0.134578E-10  0.618469E-05
  0.134739E-10  0.619489E-05
  0.134900E-10  0.620558E-05
  0.135061E-10  0.621659E-05
  0.135223E-10  0.622774E-05
  0.135384E-10  0.623882E-05
  0.135546E-10  0.624965E-05
  0.135708E-10  0.626003E-05
  0.135870E-10  0.626981E-05
  0.136033E-10  0.627880E-05
  0.136195E-10  0.628688E-05
  0.136358E-10  0.629393E-05
  0.136521E-10  0.629985E-05
  0.136684E-10  0.630459E-05
  0.136848E-10  0.630812E-05
  0.137011E-10  0.631043E-05
  0.137175E-10  0.631157E-05
  0.137339E-10  0.631160E-05
  0.137503E-10  0.631062E-05
  0.137667E-10  0.630875E-05
  0.137832E-10  0.630615E-05
  0.137997E-10  0.630297E-05
  0.138162E-10  0.629942E-05
  0.138327E-10  0.629568E-05
  0.138492E-10  0.629196E-05
  0.138658E-10  0.628847E-05
  0.138823E-10  0.628540E-05
  0.138989E-10  0.628294E-05
  0.139156E-10  0.628126E-05
  0.139322E-10  0.628052E-05
  0.139488E-10  0.628084E-05
  0.139655E-10  0.628233E-05
  0.139822E-10  0.628504E-05
  0.139989E-10  0.628901E-05
  0.140157E-10  0.629423E-05
  0.140324E-10  0.630068E-05
  0.140492E-10  0.630827E-05
  0.140660E-10  0.631691E-05
  0.140828E-10  0.632646E-05
  0.140996E-10  0.633676E-05
  0.141165E-10  0.634763E-05
  0.141333E-10  0.635887E-05
  0.141502E-10  0.637027E-05
  0.141671E-10  0.638161E-05
  0.141841E-10  0.639268E-05
  0.142010E-10  0.640326E-05
  0.142180E-10  0.641318E-05
  0.142350E-10  0.642223E-05
  0.142520E-10  0.643029E-05
  0.142691E-10  0.643721E-05
  0.142861E-10  0.644291E-05
  0.143032E-10  0.644732E-05
  0.143203E-10  0.645044E-05
  0.143374E-10  0.645227E-05
  0.143545E-10  0.645288E-05
  0.143717E-10  0.645234E-05
  0.143889E-10  0.645080E-05
  0.144061E-10  0.644840E-05
  0.144233E-10  0.644533E-05
  0.144405E-10  0.644179E-05
  0.144578E-10  0.643799E-05
  0.144751E-10  0.643417E-05
  0.144924E-10  0.643055E-05
  0.145097E-10  0.642735E-05
  0.145270E-10  0.642480E-05
  0.145444E-10  0.642307E-05
  0.145618E-10  0.642235E-05
  0.145792E-10  0.642276E-05
  0.145966E-10  0.642443E-05
  0.146141E-10  0.642741E-05
  0.146315E-10  0.643174E-05
  0.146490E-10  0.643741E-05
  0.146665E-10  0.644436E-05
  0.146841E-10  0.645251E-05
  0.147016E-10  0.646172E-05
  0.147192E-10  0.647184E-05
  0.147368E-10  0.648267E-05
  0.147544E-10  0.649400E-05
  0.147720E-10  0.650560E-05
  0.147897E-10  0.651724E-05
  0.148074E-10  0.652867E-05
  0.148251E-10  0.653966E-05
  0.148428E-10  0.654998E-05
  0.148605E-10  0.655943E-05
  0.148783E-10  0.656784E-05
  0.148961E-10  0.657506E-05
  0.149139E-10  0.658098E-05
  0.149317E-10  0.658554E-05
  0.149496E-10  0.658871E-05
  0.149674E-10  0.659051E-05
  0.149853E-10  0.659100E-05
  0.150032E-10  0.659030E-05
  0.150212E-10  0.658855E-05
  0.150391E-10  0.658593E-05
  0.150571E-10  0.658263E-05
  0.150751E-10  0.657891E-05
  0.150931E-10  0.657499E-05
  0.151112E-10  0.657115E-05
  0.151292E-10  0.656761E-05
  0.151473E-10  0.656465E-05
  0.151654E-10  0.656246E-05
  0.151835E-10  0.656127E-05
  0.152017E-10  0.656124E-05
  0.152198E-10  0.656250E-05
  0.152380E-10  0.656515E-05
  0.152563E-10  0.656923E-05
  0.152745E-10  0.657474E-05
  0.152927E-10  0.658163E-05
  0.153110E-10  0.658980E-05
  0.153293E-10  0.659913E-05
  0.153477E-10  0.660943E-05
  0.153660E-10  0.662050E-05
  0.153844E-10  0.663209E-05
  0.154028E-10  0.664395E-05
  0.154212E-10  0.665582E-05
  0.154396E-10  0.666743E-05
  0.154581E-10  0.667851E-05
  0.154765E-10  0.668884E-05
  0.154950E-10  0.669818E-05
  0.155135E-10  0.670636E-05
  0.155321E-10  0.671322E-05
  0.155507E-10  0.671867E-05
  0.155692E-10  0.672265E-05
  0.155879E-10  0.672516E-05
  0.156065E-10  0.672625E-05
  0.156251E-10  0.672601E-05
  0.156438E-10  0.672458E-05
  0.156625E-10  0.672216E-05
  0.156812E-10  0.671897E-05
  0.157000E-10  0.671525E-05
  0.157187E-10  0.671127E-05
  0.157375E-10  0.670731E-05
  0.157563E-10  0.670366E-05
  0.157752E-10  0.670059E-05
  0.157940E-10  0.669834E-05
  0.158129E-10  0.669714E-05
  0.158318E-10  0.669718E-05
  0.158507E-10  0.669861E-05
  0.158697E-10  0.670151E-05
  0.158887E-10  0.670594E-05
  0.159076E-10  0.671188E-05
  0.159267E-10  0.671927E-05
  0.159457E-10  0.672799E-05
  0.159648E-10  0.673787E-05
  0.159838E-10  0.674871E-05
  0.160029E-10  0.676026E-05
  0.160221E-10  0.677225E-05
  0.160412E-10  0.678439E-05
  0.160604E-10  0.679639E-05
  0.160796E-10  0.680794E-05
  0.160988E-10  0.681879E-05
  0.161181E-10  0.682867E-05
  0.161373E-10  0.683737E-05
  0.161566E-10  0.684471E-05
  0.161759E-10  0.685057E-05
  0.161953E-10  0.685488E-05
  0.162146E-10  0.685763E-05
  0.162340E-10  0.685885E-05
  0.162534E-10  0.685866E-05
  0.162728E-10  0.685722E-05
  0.162923E-10  0.685472E-05
  0.163118E-10  0.685141E-05
  0.163313E-10  0.684756E-05
  0.163508E-10  0.684349E-05
  0.163703E-10  0.683950E-05
  0.163899E-10  0.683589E-05
  0.164095E-10  0.683296E-05
  0.164291E-10  0.683099E-05
  0.164487E-10  0.683019E-05
  0.164684E-10  0.683078E-05
  0.164881E-10  0.683288E-05
  0.165078E-10  0.683658E-05
  0.165275E-10  0.684189E-05
  0.165473E-10  0.684878E-05
  0.165670E-10  0.685714E-05
  0.165868E-10  0.686680E-05
  0.166067E-10  0.687756E-05
  0.166265E-10  0.688915E-05
  0.166464E-10  0.690129E-05
  0.166663E-10  0.691366E-05
  0.166862E-10  0.692593E-05
  0.167062E-10  0.693779E-05
  0.167261E-10  0.694892E-05
  0.167461E-10  0.695905E-05
  0.167661E-10  0.696794E-05
  0.167862E-10  0.697538E-05
  0.168062E-10  0.698126E-05
  0.168263E-10  0.698549E-05
  0.168464E-10  0.698806E-05
  0.168666E-10  0.698904E-05
  0.168867E-10  0.698855E-05
  0.169069E-10  0.698678E-05
  0.169271E-10  0.698395E-05
  0.169474E-10  0.698037E-05
  0.169676E-10  0.697633E-05
  0.169879E-10  0.697217E-05
  0.170082E-10  0.696824E-05
  0.170285E-10  0.696487E-05
  0.170489E-10  0.696236E-05
  0.170693E-10  0.696101E-05
  0.170897E-10  0.696103E-05
  0.171101E-10  0.696260E-05
  0.171306E-10  0.696585E-05
  0.171510E-10  0.697080E-05
  0.171715E-10  0.697743E-05
  0.171921E-10  0.698565E-05
  0.172126E-10  0.699529E-05
  0.172332E-10  0.700611E-05
  0.172538E-10  0.701786E-05
  0.172744E-10  0.703020E-05
  0.172951E-10  0.704280E-05
  0.173157E-10  0.705530E-05
  0.173364E-10  0.706734E-05
  0.173571E-10  0.707859E-05
  0.173779E-10  0.708875E-05
  0.173987E-10  0.709756E-05
  0.174195E-10  0.710482E-05
  0.174403E-10  0.711040E-05
  0.174611E-10  0.711422E-05
  0.174820E-10  0.711631E-05
  0.175029E-10  0.711676E-05
  0.175238E-10  0.711571E-05
  0.175448E-10  0.711341E-05
  0.175657E-10  0.711013E-05
  0.175867E-10  0.710621E-05
  0.176077E-10  0.710199E-05
  0.176288E-10  0.709785E-05
  0.176499E-10  0.709415E-05
  0.176710E-10  0.709127E-05
  0.176921E-10  0.708950E-05
  0.177132E-10  0.708912E-05
  0.177344E-10  0.709034E-05
  0.177556E-10  0.709330E-05
  0.177768E-10  0.709806E-05
  0.177981E-10  0.710461E-05
  0.178193E-10  0.711284E-05
  0.178406E-10  0.712258E-05
  0.178620E-10  0.713359E-05
  0.178833E-10  0.714557E-05
  0.179047E-10  0.715816E-05
  0.179261E-10  0.717099E-05
  0.179475E-10  0.718367E-05
  0.179690E-10  0.719582E-05
  0.179905E-10  0.720707E-05
  0.180120E-10  0.721711E-05
  0.180335E-10  0.722565E-05
  0.180550E-10  0.723252E-05
  0.180766E-10  0.723757E-05
  0.180982E-10  0.724078E-05
  0.181199E-10  0.724219E-05
  0.181415E-10  0.724193E-05
  0.181632E-10  0.724020E-05
  0.181849E-10  0.723729E-05
  0.182067E-10  0.723354E-05
  0.182284E-10  0.722932E-05
  0.182502E-10  0.722503E-05
  0.182720E-10  0.722109E-05
  0.182939E-10  0.721787E-05
  0.183157E-10  0.721575E-05
  0.183376E-10  0.721503E-05
  0.183595E-10  0.721596E-05
  0.183815E-10  0.721870E-05
  0.184035E-10  0.722333E-05
  0.184255E-10  0.722985E-05
  0.184475E-10  0.723815E-05
  0.184695E-10  0.724805E-05
  0.184916E-10  0.725928E-05
  0.185137E-10  0.727151E-05
  0.185358E-10  0.728436E-05
  0.185580E-10  0.729742E-05
  0.185802E-10  0.731026E-05
  0.186024E-10  0.732246E-05
  0.186246E-10  0.733365E-05
  0.186469E-10  0.734347E-05
  0.186692E-10  0.735166E-05
  0.186915E-10  0.735802E-05
  0.187138E-10  0.736246E-05
  0.187362E-10  0.736496E-05
  0.187586E-10  0.736561E-05
  0.187810E-10  0.736460E-05
  0.188035E-10  0.736219E-05
  0.188259E-10  0.735871E-05
  0.188484E-10  0.735457E-05
  0.188710E-10  0.735018E-05
  0.188935E-10  0.734600E-05
  0.189161E-10  0.734246E-05
  0.189387E-10  0.733996E-05
  0.189614E-10  0.733885E-05
  0.189840E-10  0.733943E-05
  0.190067E-10  0.734188E-05
  0.190294E-10  0.734632E-05
  0.190522E-10  0.735275E-05
  0.190749E-10  0.736106E-05
  0.190977E-10  0.737107E-05
  0.191206E-10  0.738249E-05
  0.191434E-10  0.739495E-05
  0.191663E-10  0.740804E-05
  0.191892E-10  0.742131E-05
  0.192122E-10  0.743431E-05
  0.192351E-10  0.744657E-05
  0.192581E-10  0.745769E-05
  0.192811E-10  0.746731E-05
  0.193042E-10  0.747516E-05
  0.193273E-10  0.748105E-05
  0.193504E-10  0.748490E-05
  0.193735E-10  0.748674E-05
  0.193966E-10  0.748670E-05
  0.194198E-10  0.748501E-05
  0.194430E-10  0.748201E-05
  0.194663E-10  0.747808E-05
  0.194895E-10  0.747369E-05
  0.195128E-10  0.746929E-05
  0.195362E-10  0.746538E-05
  0.195595E-10  0.746240E-05
  0.195829E-10  0.746077E-05
  0.196063E-10  0.746082E-05
  0.196297E-10  0.746279E-05
  0.196532E-10  0.746683E-05
  0.196767E-10  0.747296E-05
  0.197002E-10  0.748110E-05
  0.197238E-10  0.749106E-05
  0.197473E-10  0.750253E-05
  0.197709E-10  0.751513E-05
  0.197946E-10  0.752842E-05
  0.198182E-10  0.754191E-05
  0.198419E-10  0.755510E-05
  0.198656E-10  0.756750E-05
  0.198894E-10  0.757867E-05
  0.199132E-10  0.758823E-05
  0.199370E-10  0.759590E-05
  0.199608E-10  0.760149E-05
  0.199846E-10  0.760493E-05
  0.200085E-10  0.760629E-05
  0.200325E-10  0.760573E-05
  0.200564E-10  0.760355E-05
  0.200804E-10  0.760011E-05
  0.201044E-10  0.759588E-05
  0.201284E-10  0.759136E-05
  0.201525E-10  0.758705E-05
  0.201765E-10  0.758348E-05
  0.202007E-10  0.758112E-05
  0.202248E-10  0.758036E-05
  0.202490E-10  0.758152E-05
  0.202732E-10  0.758480E-05
  0.202974E-10  0.759028E-05
  0.203217E-10  0.759790E-05
  0.203460E-10  0.760751E-05
  0.203703E-10  0.761879E-05
  0.203946E-10  0.763137E-05
  0.204190E-10  0.764478E-05
  0.204434E-10  0.765848E-05
  0.204679E-10  0.767194E-05
  0.204923E-10  0.768464E-05
  0.205168E-10  0.769609E-05
  0.205413E-10  0.770587E-05
  0.205659E-10  0.771366E-05
  0.205905E-10  0.771928E-05
  0.206151E-10  0.772266E-05
  0.206397E-10  0.772385E-05
  0.206644E-10  0.772307E-05
  0.206891E-10  0.772064E-05
  0.207138E-10  0.771696E-05
  0.207386E-10  0.771256E-05
  0.207634E-10  0.770797E-05
  0.207882E-10  0.770376E-05
  0.208130E-10  0.770046E-05
  0.208379E-10  0.769857E-05
  0.208628E-10  0.769849E-05
  0.208878E-10  0.770051E-05
  0.209127E-10  0.770480E-05
  0.209377E-10  0.771139E-05
  0.209628E-10  0.772015E-05
  0.209878E-10  0.773085E-05
  0.210129E-10  0.774309E-05
  0.210380E-10  0.775641E-05
  0.210632E-10  0.777027E-05
  0.210883E-10  0.778409E-05
  0.211135E-10  0.779729E-05
  0.211388E-10  0.780933E-05
  0.211641E-10  0.781973E-05
  0.211894E-10  0.782813E-05
  0.212147E-10  0.783428E-05
  0.212400E-10  0.783809E-05
  0.212654E-10  0.783960E-05
  0.212908E-10  0.783900E-05
  0.213163E-10  0.783664E-05
  0.213418E-10  0.783296E-05
  0.213673E-10  0.782850E-05
  0.213928E-10  0.782384E-05
  0.214184E-10  0.781960E-05
  0.214440E-10  0.781634E-05
  0.214696E-10  0.781460E-05
  0.214953E-10  0.781479E-05
  0.215210E-10  0.781722E-05
  0.215467E-10  0.782203E-05
  0.215725E-10  0.782923E-05
  0.215982E-10  0.783866E-05
  0.216241E-10  0.785000E-05
  0.216499E-10  0.786283E-05
  0.216758E-10  0.787660E-05
  0.217017E-10  0.789072E-05
  0.217276E-10  0.790456E-05
  0.217536E-10  0.791750E-05
  0.217796E-10  0.792900E-05
  0.218056E-10  0.793859E-05
  0.218317E-10  0.794594E-05
  0.218578E-10  0.795087E-05
  0.218839E-10  0.795335E-05
  0.219101E-10  0.795355E-05
  0.219363E-10  0.795174E-05
  0.219625E-10  0.794839E-05
  0.219887E-10  0.794404E-05
  0.220150E-10  0.793931E-05
  0.220413E-10  0.793484E-05
  0.220677E-10  0.793128E-05
  0.220941E-10  0.792920E-05
  0.221205E-10  0.792908E-05
  0.221469E-10  0.793125E-05
  0.221734E-10  0.793591E-05
  0.221999E-10  0.794306E-05
  0.222264E-10  0.795255E-05
  0.222530E-10  0.796405E-05
  0.222796E-10  0.797709E-05
  0.223062E-10  0.799110E-05
  0.223329E-10  0.800542E-05
  0.223596E-10  0.801939E-05
  0.223863E-10  0.803234E-05
  0.224131E-10  0.804371E-05
  0.224399E-10  0.805301E-05
  0.224667E-10  0.805992E-05
  0.224935E-10  0.806428E-05
  0.225204E-10  0.806612E-05
  0.225473E-10  0.806564E-05
  0.225743E-10  0.806322E-05
  0.226013E-10  0.805938E-05
  0.226283E-10  0.805473E-05
  0.226553E-10  0.804997E-05
  0.226824E-10  0.804578E-05
  0.227095E-10  0.804283E-05
  0.227367E-10  0.804168E-05
  0.227638E-10  0.804278E-05
