k a(k) 
  0.100072E-10  0.578414E-07
  0.100191E-10  0.578261E-07
  0.100311E-10  0.578082E-07
  0.100431E-10  0.577884E-07
  0.100551E-10  0.577675E-07
  0.100671E-10  0.577463E-07
  0.100792E-10  0.577256E-07
  0.100912E-10  0.577063E-07
  0.101033E-10  0.576890E-07
  0.101154E-10  0.576746E-07
  0.101274E-10  0.576637E-07
  0.101396E-10  0.576571E-07
  0.101517E-10  0.576554E-07
  0.101638E-10  0.576591E-07
  0.101760E-10  0.576686E-07
  0.101881E-10  0.576844E-07
  0.102003E-10  0.577068E-07
  0.102125E-10  0.577359E-07
  0.102247E-10  0.577719E-07
  0.102369E-10  0.578147E-07
  0.102492E-10  0.578642E-07
  0.102614E-10  0.579203E-07
  0.102737E-10  0.579827E-07
  0.102859E-10  0.580509E-07
  0.102982E-10  0.581244E-07
  0.103106E-10  0.582027E-07
  0.103229E-10  0.582852E-07
  0.103352E-10  0.583711E-07
  0.103476E-10  0.584596E-07
  0.103599E-10  0.585500E-07
  0.103723E-10  0.586414E-07
  0.103847E-10  0.587330E-07
  0.103971E-10  0.588238E-07
  0.104096E-10  0.589131E-07
  0.104220E-10  0.590000E-07
  0.104345E-10  0.590836E-07
  0.104469E-10  0.591632E-07
  0.104594E-10  0.592382E-07
  0.104719E-10  0.593078E-07
  0.104844E-10  0.593716E-07
  0.104970E-10  0.594290E-07
  0.105095E-10  0.594798E-07
  0.105221E-10  0.595236E-07
  0.105347E-10  0.595603E-07
  0.105472E-10  0.595898E-07
  0.105599E-10  0.596123E-07
  0.105725E-10  0.596280E-07
  0.105851E-10  0.596370E-07
  0.105978E-10  0.596399E-07
  0.106104E-10  0.596371E-07
  0.106231E-10  0.596292E-07
  0.106358E-10  0.596170E-07
  0.106485E-10  0.596011E-07
  0.106613E-10  0.595824E-07
  0.106740E-10  0.595617E-07
  0.106868E-10  0.595401E-07
  0.106995E-10  0.595183E-07
  0.107123E-10  0.594974E-07
  0.107251E-10  0.594782E-07
  0.107379E-10  0.594617E-07
  0.107508E-10  0.594487E-07
  0.107636E-10  0.594400E-07
  0.107765E-10  0.594364E-07
  0.107894E-10  0.594385E-07
  0.108023E-10  0.594470E-07
  0.108152E-10  0.594622E-07
  0.108281E-10  0.594845E-07
  0.108411E-10  0.595142E-07
  0.108540E-10  0.595514E-07
  0.108670E-10  0.595961E-07
  0.108800E-10  0.596482E-07
  0.108930E-10  0.597073E-07
  0.109060E-10  0.597732E-07
  0.109190E-10  0.598453E-07
  0.109321E-10  0.599230E-07
  0.109452E-10  0.600057E-07
  0.109582E-10  0.600925E-07
  0.109713E-10  0.601827E-07
  0.109844E-10  0.602752E-07
  0.109976E-10  0.603691E-07
  0.110107E-10  0.604634E-07
  0.110239E-10  0.605572E-07
  0.110371E-10  0.606494E-07
  0.110503E-10  0.607390E-07
  0.110635E-10  0.608251E-07
  0.110767E-10  0.609068E-07
  0.110899E-10  0.609834E-07
  0.111032E-10  0.610541E-07
  0.111165E-10  0.611182E-07
  0.111297E-10  0.611754E-07
  0.111430E-10  0.612251E-07
  0.111564E-10  0.612672E-07
  0.111697E-10  0.613014E-07
  0.111831E-10  0.613280E-07
  0.111964E-10  0.613469E-07
  0.112098E-10  0.613585E-07
  0.112232E-10  0.613632E-07
  0.112366E-10  0.613616E-07
  0.112500E-10  0.613544E-07
  0.112635E-10  0.613422E-07
  0.112770E-10  0.613260E-07
  0.112904E-10  0.613068E-07
  0.113039E-10  0.612854E-07
  0.113174E-10  0.612631E-07
  0.113310E-10  0.612408E-07
  0.113445E-10  0.612196E-07
  0.113581E-10  0.612006E-07
  0.113716E-10  0.611848E-07
  0.113852E-10  0.611732E-07
  0.113989E-10  0.611667E-07
  0.114125E-10  0.611661E-07
  0.114261E-10  0.611721E-07
  0.114398E-10  0.611852E-07
  0.114534E-10  0.612061E-07
  0.114671E-10  0.612349E-07
  0.114808E-10  0.612718E-07
  0.114946E-10  0.613169E-07
  0.115083E-10  0.613700E-07
  0.115221E-10  0.614309E-07
  0.115358E-10  0.614990E-07
  0.115496E-10  0.615739E-07
  0.115634E-10  0.616548E-07
  0.115773E-10  0.617409E-07
  0.115911E-10  0.618312E-07
  0.116049E-10  0.619249E-07
  0.116188E-10  0.620207E-07
  0.116327E-10  0.621176E-07
  0.116466E-10  0.622144E-07
  0.116605E-10  0.623100E-07
  0.116745E-10  0.624032E-07
  0.116884E-10  0.624929E-07
  0.117024E-10  0.625782E-07
  0.117164E-10  0.626580E-07
  0.117304E-10  0.627315E-07
  0.117444E-10  0.627981E-07
  0.117584E-10  0.628570E-07
  0.117725E-10  0.629079E-07
  0.117866E-10  0.629504E-07
  0.118007E-10  0.629845E-07
  0.118148E-10  0.630102E-07
  0.118289E-10  0.630277E-07
  0.118430E-10  0.630374E-07
  0.118572E-10  0.630398E-07
  0.118714E-10  0.630356E-07
  0.118855E-10  0.630256E-07
  0.118997E-10  0.630108E-07
  0.119140E-10  0.629922E-07
  0.119282E-10  0.629709E-07
  0.119425E-10  0.629481E-07
  0.119567E-10  0.629251E-07
  0.119710E-10  0.629030E-07
  0.119853E-10  0.628832E-07
  0.119997E-10  0.628667E-07
  0.120140E-10  0.628547E-07
  0.120284E-10  0.628482E-07
  0.120428E-10  0.628481E-07
  0.120571E-10  0.628553E-07
  0.120716E-10  0.628704E-07
  0.120860E-10  0.628938E-07
  0.121004E-10  0.629260E-07
  0.121149E-10  0.629670E-07
  0.121294E-10  0.630168E-07
  0.121439E-10  0.630751E-07
  0.121584E-10  0.631416E-07
  0.121729E-10  0.632157E-07
  0.121875E-10  0.632966E-07
  0.122020E-10  0.633835E-07
  0.122166E-10  0.634752E-07
  0.122312E-10  0.635708E-07
  0.122459E-10  0.636689E-07
  0.122605E-10  0.637683E-07
  0.122751E-10  0.638678E-07
  0.122898E-10  0.639659E-07
  0.123045E-10  0.640613E-07
  0.123192E-10  0.641529E-07
  0.123339E-10  0.642395E-07
  0.123487E-10  0.643200E-07
  0.123634E-10  0.643935E-07
  0.123782E-10  0.644592E-07
  0.123930E-10  0.645165E-07
  0.124078E-10  0.645650E-07
  0.124227E-10  0.646043E-07
  0.124375E-10  0.646345E-07
  0.124524E-10  0.646558E-07
  0.124673E-10  0.646684E-07
  0.124822E-10  0.646730E-07
  0.124971E-10  0.646702E-07
  0.125120E-10  0.646609E-07
  0.125270E-10  0.646463E-07
  0.125419E-10  0.646275E-07
  0.125569E-10  0.646057E-07
  0.125719E-10  0.645823E-07
  0.125870E-10  0.645587E-07
  0.126020E-10  0.645363E-07
  0.126171E-10  0.645165E-07
  0.126322E-10  0.645005E-07
  0.126473E-10  0.644898E-07
  0.126624E-10  0.644853E-07
  0.126775E-10  0.644881E-07
  0.126927E-10  0.644990E-07
  0.127078E-10  0.645187E-07
  0.127230E-10  0.645477E-07
  0.127382E-10  0.645862E-07
  0.127535E-10  0.646341E-07
  0.127687E-10  0.646914E-07
  0.127840E-10  0.647577E-07
  0.127993E-10  0.648323E-07
  0.128145E-10  0.649143E-07
  0.128299E-10  0.650029E-07
  0.128452E-10  0.650969E-07
  0.128606E-10  0.651949E-07
  0.128759E-10  0.652956E-07
  0.128913E-10  0.653977E-07
  0.129067E-10  0.654995E-07
  0.129222E-10  0.655995E-07
  0.129376E-10  0.656965E-07
  0.129531E-10  0.657888E-07
  0.129685E-10  0.658754E-07
  0.129840E-10  0.659549E-07
  0.129996E-10  0.660266E-07
  0.130151E-10  0.660894E-07
  0.130307E-10  0.661429E-07
  0.130462E-10  0.661867E-07
  0.130618E-10  0.662207E-07
  0.130774E-10  0.662449E-07
  0.130931E-10  0.662597E-07
  0.131087E-10  0.662657E-07
  0.131244E-10  0.662637E-07
  0.131401E-10  0.662546E-07
  0.131558E-10  0.662397E-07
  0.131715E-10  0.662203E-07
  0.131873E-10  0.661978E-07
  0.132030E-10  0.661737E-07
  0.132188E-10  0.661497E-07
  0.132346E-10  0.661272E-07
  0.132504E-10  0.661079E-07
  0.132663E-10  0.660932E-07
  0.132821E-10  0.660845E-07
  0.132980E-10  0.660830E-07
  0.133139E-10  0.660898E-07
  0.133298E-10  0.661057E-07
  0.133457E-10  0.661314E-07
  0.133617E-10  0.661672E-07
  0.133777E-10  0.662132E-07
  0.133936E-10  0.662694E-07
  0.134097E-10  0.663353E-07
  0.134257E-10  0.664102E-07
  0.134417E-10  0.664934E-07
  0.134578E-10  0.665837E-07
  0.134739E-10  0.666798E-07
  0.134900E-10  0.667803E-07
  0.135061E-10  0.668836E-07
  0.135223E-10  0.669881E-07
  0.135384E-10  0.670922E-07
  0.135546E-10  0.671941E-07
  0.135708E-10  0.672922E-07
  0.135870E-10  0.673850E-07
  0.136033E-10  0.674712E-07
  0.136195E-10  0.675494E-07
  0.136358E-10  0.676187E-07
  0.136521E-10  0.676782E-07
  0.136684E-10  0.677275E-07
  0.136848E-10  0.677662E-07
  0.137011E-10  0.677944E-07
  0.137175E-10  0.678124E-07
  0.137339E-10  0.678207E-07
  0.137503E-10  0.678202E-07
  0.137667E-10  0.678119E-07
  0.137832E-10  0.677973E-07
  0.137997E-10  0.677776E-07
  0.138162E-10  0.677546E-07
  0.138327E-10  0.677299E-07
  0.138492E-10  0.677054E-07
  0.138658E-10  0.676827E-07
  0.138823E-10  0.676637E-07
  0.138989E-10  0.676499E-07
  0.139156E-10  0.676429E-07
  0.139322E-10  0.676441E-07
  0.139488E-10  0.676544E-07
  0.139655E-10  0.676748E-07
  0.139822E-10  0.677058E-07
  0.139989E-10  0.677478E-07
  0.140157E-10  0.678007E-07
  0.140324E-10  0.678643E-07
  0.140492E-10  0.679379E-07
  0.140660E-10  0.680205E-07
  0.140828E-10  0.681112E-07
  0.140996E-10  0.682084E-07
  0.141165E-10  0.683106E-07
  0.141333E-10  0.684160E-07
  0.141502E-10  0.685229E-07
  0.141671E-10  0.686294E-07
  0.141841E-10  0.687336E-07
  0.142010E-10  0.688336E-07
  0.142180E-10  0.689278E-07
  0.142350E-10  0.690147E-07
  0.142520E-10  0.690928E-07
  0.142691E-10  0.691612E-07
  0.142861E-10  0.692189E-07
  0.143032E-10  0.692656E-07
  0.143203E-10  0.693009E-07
  0.143374E-10  0.693251E-07
  0.143545E-10  0.693386E-07
  0.143717E-10  0.693422E-07
  0.143889E-10  0.693369E-07
  0.144061E-10  0.693242E-07
  0.144233E-10  0.693056E-07
  0.144405E-10  0.692829E-07
  0.144578E-10  0.692579E-07
  0.144751E-10  0.692326E-07
  0.144924E-10  0.692091E-07
  0.145097E-10  0.691892E-07
  0.145270E-10  0.691748E-07
  0.145444E-10  0.691675E-07
  0.145618E-10  0.691689E-07
  0.145792E-10  0.691803E-07
  0.145966E-10  0.692024E-07
  0.146141E-10  0.692360E-07
  0.146315E-10  0.692814E-07
  0.146490E-10  0.693383E-07
  0.146665E-10  0.694064E-07
  0.146841E-10  0.694850E-07
  0.147016E-10  0.695728E-07
  0.147192E-10  0.696686E-07
  0.147368E-10  0.697706E-07
  0.147544E-10  0.698770E-07
  0.147720E-10  0.699859E-07
  0.147897E-10  0.700951E-07
  0.148074E-10  0.702025E-07
  0.148251E-10  0.703062E-07
  0.148428E-10  0.704042E-07
  0.148605E-10  0.704946E-07
  0.148783E-10  0.705760E-07
  0.148961E-10  0.706471E-07
  0.149139E-10  0.707069E-07
  0.149317E-10  0.707550E-07
  0.149496E-10  0.707909E-07
  0.149674E-10  0.708150E-07
  0.149853E-10  0.708277E-07
  0.150032E-10  0.708300E-07
  0.150212E-10  0.708231E-07
  0.150391E-10  0.708086E-07
  0.150571E-10  0.707883E-07
  0.150751E-10  0.707641E-07
  0.150931E-10  0.707382E-07
  0.151112E-10  0.707129E-07
  0.151292E-10  0.706903E-07
  0.151473E-10  0.706724E-07
  0.151654E-10  0.706615E-07
  0.151835E-10  0.706590E-07
  0.152017E-10  0.706666E-07
  0.152198E-10  0.706855E-07
  0.152380E-10  0.707163E-07
  0.152563E-10  0.707596E-07
  0.152745E-10  0.708154E-07
  0.152927E-10  0.708831E-07
  0.153110E-10  0.709621E-07
  0.153293E-10  0.710512E-07
  0.153477E-10  0.711487E-07
  0.153660E-10  0.712529E-07
  0.153844E-10  0.713617E-07
  0.154028E-10  0.714730E-07
  0.154212E-10  0.715844E-07
  0.154396E-10  0.716936E-07
  0.154581E-10  0.717983E-07
  0.154765E-10  0.718965E-07
  0.154950E-10  0.719861E-07
  0.155135E-10  0.720657E-07
  0.155321E-10  0.721339E-07
  0.155507E-10  0.721898E-07
  0.155692E-10  0.722330E-07
  0.155879E-10  0.722634E-07
  0.156065E-10  0.722814E-07
  0.156251E-10  0.722878E-07
  0.156438E-10  0.722840E-07
  0.156625E-10  0.722714E-07
  0.156812E-10  0.722521E-07
  0.157000E-10  0.722282E-07
  0.157187E-10  0.722019E-07
  0.157375E-10  0.721758E-07
  0.157563E-10  0.721523E-07
  0.157752E-10  0.721338E-07
  0.157940E-10  0.721224E-07
  0.158129E-10  0.721201E-07
  0.158318E-10  0.721285E-07
  0.158507E-10  0.721489E-07
  0.158697E-10  0.721822E-07
  0.158887E-10  0.722287E-07
  0.159076E-10  0.722884E-07
  0.159267E-10  0.723607E-07
  0.159457E-10  0.724445E-07
  0.159648E-10  0.725386E-07
  0.159838E-10  0.726410E-07
  0.160029E-10  0.727496E-07
  0.160221E-10  0.728621E-07
  0.160412E-10  0.729760E-07
  0.160604E-10  0.730887E-07
  0.160796E-10  0.731976E-07
  0.160988E-10  0.733004E-07
  0.161181E-10  0.733949E-07
  0.161373E-10  0.734792E-07
  0.161566E-10  0.735517E-07
  0.161759E-10  0.736114E-07
  0.161953E-10  0.736575E-07
  0.162146E-10  0.736901E-07
  0.162340E-10  0.737095E-07
  0.162534E-10  0.737166E-07
  0.162728E-10  0.737127E-07
  0.162923E-10  0.736996E-07
  0.163118E-10  0.736794E-07
  0.163313E-10  0.736546E-07
  0.163508E-10  0.736277E-07
  0.163703E-10  0.736014E-07
  0.163899E-10  0.735785E-07
  0.164095E-10  0.735614E-07
  0.164291E-10  0.735525E-07
  0.164487E-10  0.735538E-07
  0.164684E-10  0.735672E-07
  0.164881E-10  0.735936E-07
  0.165078E-10  0.736340E-07
  0.165275E-10  0.736884E-07
  0.165473E-10  0.737564E-07
  0.165670E-10  0.738373E-07
  0.165868E-10  0.739296E-07
  0.166067E-10  0.740314E-07
  0.166265E-10  0.741406E-07
  0.166464E-10  0.742545E-07
  0.166663E-10  0.743705E-07
  0.166862E-10  0.744858E-07
  0.167062E-10  0.745975E-07
  0.167261E-10  0.747030E-07
  0.167461E-10  0.747998E-07
  0.167661E-10  0.748858E-07
  0.167862E-10  0.749594E-07
  0.168062E-10  0.750193E-07
  0.168263E-10  0.750650E-07
  0.168464E-10  0.750962E-07
  0.168666E-10  0.751136E-07
  0.168867E-10  0.751183E-07
  0.169069E-10  0.751117E-07
  0.169271E-10  0.750959E-07
  0.169474E-10  0.750735E-07
  0.169676E-10  0.750471E-07
  0.169879E-10  0.750196E-07
  0.170082E-10  0.749940E-07
  0.170285E-10  0.749732E-07
  0.170489E-10  0.749599E-07
  0.170693E-10  0.749566E-07
  0.170897E-10  0.749652E-07
  0.171101E-10  0.749872E-07
  0.171306E-10  0.750238E-07
  0.171510E-10  0.750752E-07
  0.171715E-10  0.751412E-07
  0.171921E-10  0.752211E-07
  0.172126E-10  0.753133E-07
  0.172332E-10  0.754159E-07
  0.172538E-10  0.755265E-07
  0.172744E-10  0.756424E-07
  0.172951E-10  0.757605E-07
  0.173157E-10  0.758779E-07
  0.173364E-10  0.759914E-07
  0.173571E-10  0.760981E-07
  0.173779E-10  0.761953E-07
  0.173987E-10  0.762809E-07
  0.174195E-10  0.763530E-07
  0.174403E-10  0.764104E-07
  0.174611E-10  0.764527E-07
  0.174820E-10  0.764800E-07
  0.175029E-10  0.764928E-07
  0.175238E-10  0.764928E-07
  0.175448E-10  0.764818E-07
  0.175657E-10  0.764622E-07
  0.175867E-10  0.764369E-07
  0.176077E-10  0.764091E-07
  0.176288E-10  0.763819E-07
  0.176499E-10  0.763585E-07
  0.176710E-10  0.763420E-07
  0.176921E-10  0.763353E-07
  0.177132E-10  0.763405E-07
  0.177344E-10  0.763597E-07
  0.177556E-10  0.763940E-07
  0.177768E-10  0.764439E-07
  0.177981E-10  0.765093E-07
  0.178193E-10  0.765895E-07
  0.178406E-10  0.766827E-07
  0.178620E-10  0.767871E-07
  0.178833E-10  0.768999E-07
  0.179047E-10  0.770181E-07
  0.179261E-10  0.771384E-07
  0.179475E-10  0.772576E-07
  0.179690E-10  0.773721E-07
  0.179905E-10  0.774789E-07
  0.180120E-10  0.775753E-07
  0.180335E-10  0.776587E-07
  0.180550E-10  0.777275E-07
  0.180766E-10  0.777807E-07
  0.180982E-10  0.778177E-07
  0.181199E-10  0.778392E-07
  0.181415E-10  0.778460E-07
  0.181632E-10  0.778402E-07
  0.181849E-10  0.778240E-07
  0.182067E-10  0.778005E-07
  0.182284E-10  0.777728E-07
  0.182502E-10  0.777445E-07
  0.182720E-10  0.777190E-07
  0.182939E-10  0.776999E-07
  0.183157E-10  0.776903E-07
  0.183376E-10  0.776928E-07
  0.183595E-10  0.777095E-07
  0.183815E-10  0.777420E-07
  0.184035E-10  0.777910E-07
  0.184255E-10  0.778564E-07
  0.184475E-10  0.779373E-07
  0.184695E-10  0.780321E-07
  0.184916E-10  0.781385E-07
  0.185137E-10  0.782537E-07
  0.185358E-10  0.783743E-07
  0.185580E-10  0.784968E-07
  0.185802E-10  0.786174E-07
  0.186024E-10  0.787326E-07
  0.186246E-10  0.788390E-07
  0.186469E-10  0.789337E-07
  0.186692E-10  0.790141E-07
  0.186915E-10  0.790788E-07
  0.187138E-10  0.791267E-07
  0.187362E-10  0.791578E-07
  0.187586E-10  0.791728E-07
  0.187810E-10  0.791733E-07
  0.188035E-10  0.791616E-07
  0.188259E-10  0.791406E-07
  0.188484E-10  0.791138E-07
  0.188710E-10  0.790848E-07
  0.188935E-10  0.790575E-07
  0.189161E-10  0.790357E-07
  0.189387E-10  0.790229E-07
  0.189614E-10  0.790222E-07
  0.189840E-10  0.790361E-07
  0.190067E-10  0.790663E-07
  0.190294E-10  0.791137E-07
  0.190522E-10  0.791784E-07
  0.190749E-10  0.792596E-07
  0.190977E-10  0.793555E-07
  0.191206E-10  0.794637E-07
  0.191434E-10  0.795810E-07
  0.191663E-10  0.797039E-07
  0.191892E-10  0.798284E-07
  0.192122E-10  0.799506E-07
  0.192351E-10  0.800665E-07
  0.192581E-10  0.801725E-07
  0.192811E-10  0.802655E-07
  0.193042E-10  0.803432E-07
  0.193273E-10  0.804039E-07
  0.193504E-10  0.804468E-07
  0.193735E-10  0.804723E-07
  0.193966E-10  0.804814E-07
  0.194198E-10  0.804762E-07
  0.194430E-10  0.804595E-07
  0.194663E-10  0.804348E-07
  0.194895E-10  0.804058E-07
  0.195128E-10  0.803769E-07
  0.195362E-10  0.803520E-07
  0.195595E-10  0.803353E-07
  0.195829E-10  0.803302E-07
  0.196063E-10  0.803396E-07
  0.196297E-10  0.803658E-07
  0.196532E-10  0.804099E-07
  0.196767E-10  0.804722E-07
  0.197002E-10  0.805520E-07
  0.197238E-10  0.806476E-07
  0.197473E-10  0.807564E-07
  0.197709E-10  0.808751E-07
  0.197946E-10  0.809999E-07
  0.198182E-10  0.811264E-07
  0.198419E-10  0.812504E-07
  0.198656E-10  0.813677E-07
  0.198894E-10  0.814743E-07
  0.199132E-10  0.815669E-07
  0.199370E-10  0.816432E-07
  0.199608E-10  0.817014E-07
  0.199846E-10  0.817410E-07
  0.200085E-10  0.817624E-07
  0.200325E-10  0.817672E-07
  0.200564E-10  0.817578E-07
  0.200804E-10  0.817374E-07
  0.201044E-10  0.817102E-07
  0.201284E-10  0.816802E-07
  0.201525E-10  0.816522E-07
  0.201765E-10  0.816305E-07
  0.202007E-10  0.816192E-07
  0.202248E-10  0.816218E-07
  0.202490E-10  0.816410E-07
  0.202732E-10  0.816787E-07
  0.202974E-10  0.817354E-07
  0.203217E-10  0.818109E-07
  0.203460E-10  0.819036E-07
  0.203703E-10  0.820109E-07
  0.203946E-10  0.821296E-07
  0.204190E-10  0.822554E-07
  0.204434E-10  0.823840E-07
  0.204679E-10  0.825105E-07
  0.204923E-10  0.826305E-07
  0.205168E-10  0.827396E-07
  0.205413E-10  0.828343E-07
  0.205659E-10  0.829118E-07
  0.205905E-10  0.829705E-07
  0.206151E-10  0.830096E-07
  0.206397E-10  0.830297E-07
  0.206644E-10  0.830327E-07
  0.206891E-10  0.830212E-07
  0.207138E-10  0.829990E-07
  0.207386E-10  0.829703E-07
  0.207634E-10  0.829400E-07
  0.207882E-10  0.829129E-07
  0.208130E-10  0.828936E-07
  0.208379E-10  0.828866E-07
  0.208628E-10  0.828952E-07
  0.208878E-10  0.829221E-07
  0.209127E-10  0.829687E-07
  0.209377E-10  0.830353E-07
  0.209628E-10  0.831208E-07
  0.209878E-10  0.832231E-07
  0.210129E-10  0.833390E-07
  0.210380E-10  0.834643E-07
  0.210632E-10  0.835943E-07
  0.210883E-10  0.837240E-07
  0.211135E-10  0.838484E-07
  0.211388E-10  0.839628E-07
  0.211641E-10  0.840631E-07
  0.211894E-10  0.841460E-07
  0.212147E-10  0.842093E-07
  0.212400E-10  0.842524E-07
  0.212654E-10  0.842754E-07
  0.212908E-10  0.842802E-07
  0.213163E-10  0.842695E-07
  0.213418E-10  0.842473E-07
  0.213673E-10  0.842183E-07
  0.213928E-10  0.841875E-07
  0.214184E-10  0.841602E-07
  0.214440E-10  0.841415E-07
  0.214696E-10  0.841359E-07
  0.214953E-10  0.841470E-07
  0.215210E-10  0.841776E-07
  0.215467E-10  0.842289E-07
  0.215725E-10  0.843009E-07
  0.215982E-10  0.843924E-07
  0.216241E-10  0.845005E-07
  0.216499E-10  0.846216E-07
  0.216758E-10  0.847510E-07
  0.217017E-10  0.848834E-07
  0.217276E-10  0.850135E-07
  0.217536E-10  0.851359E-07
  0.217796E-10  0.852457E-07
  0.218056E-10  0.853391E-07
  0.218317E-10  0.854130E-07
  0.218578E-10  0.854659E-07
  0.218839E-10  0.854976E-07
  0.219101E-10  0.855093E-07
  0.219363E-10  0.855036E-07
  0.219625E-10  0.854845E-07
  0.219887E-10  0.854566E-07
  0.220150E-10  0.854253E-07
  0.220413E-10  0.853963E-07
  0.220677E-10  0.853751E-07
  0.220941E-10  0.853667E-07
  0.221205E-10  0.853752E-07
  0.221469E-10  0.854037E-07
  0.221734E-10  0.854538E-07
  0.221999E-10  0.855256E-07
  0.222264E-10  0.856177E-07
  0.222530E-10  0.857273E-07
  0.222796E-10  0.858504E-07
  0.223062E-10  0.859819E-07
  0.223329E-10  0.861163E-07
  0.223596E-10  0.862476E-07
  0.223863E-10  0.863703E-07
  0.224131E-10  0.864791E-07
  0.224399E-10  0.865701E-07
  0.224667E-10  0.866404E-07
  0.224935E-10  0.866885E-07
  0.225204E-10  0.867147E-07
  0.225473E-10  0.867207E-07
  0.225743E-10  0.867098E-07
  0.226013E-10  0.866865E-07
  0.226283E-10  0.866561E-07
  0.226553E-10  0.866247E-07
  0.226824E-10  0.865982E-07
  0.227095E-10  0.865824E-07
  0.227367E-10  0.865822E-07
  0.227638E-10  0.866016E-07
