k a(k) 
  0.100072E-10  0.110249E-04
  0.100191E-10  0.110196E-04
  0.100311E-10  0.110138E-04
  0.100431E-10  0.110075E-04
  0.100551E-10  0.110010E-04
  0.100671E-10  0.109945E-04
  0.100792E-10  0.109880E-04
  0.100912E-10  0.109819E-04
  0.101033E-10  0.109763E-04
  0.101154E-10  0.109714E-04
  0.101274E-10  0.109673E-04
  0.101396E-10  0.109642E-04
  0.101517E-10  0.109623E-04
  0.101638E-10  0.109617E-04
  0.101760E-10  0.109624E-04
  0.101881E-10  0.109647E-04
  0.102003E-10  0.109684E-04
  0.102125E-10  0.109738E-04
  0.102247E-10  0.109808E-04
  0.102369E-10  0.109894E-04
  0.102492E-10  0.109996E-04
  0.102614E-10  0.110114E-04
  0.102737E-10  0.110246E-04
  0.102859E-10  0.110391E-04
  0.102982E-10  0.110549E-04
  0.103106E-10  0.110719E-04
  0.103229E-10  0.110898E-04
  0.103352E-10  0.111085E-04
  0.103476E-10  0.111278E-04
  0.103599E-10  0.111476E-04
  0.103723E-10  0.111676E-04
  0.103847E-10  0.111876E-04
  0.103971E-10  0.112074E-04
  0.104096E-10  0.112268E-04
  0.104220E-10  0.112457E-04
  0.104345E-10  0.112637E-04
  0.104469E-10  0.112809E-04
  0.104594E-10  0.112969E-04
  0.104719E-10  0.113116E-04
  0.104844E-10  0.113250E-04
  0.104970E-10  0.113369E-04
  0.105095E-10  0.113471E-04
  0.105221E-10  0.113558E-04
  0.105347E-10  0.113627E-04
  0.105472E-10  0.113680E-04
  0.105599E-10  0.113716E-04
  0.105725E-10  0.113736E-04
  0.105851E-10  0.113741E-04
  0.105978E-10  0.113730E-04
  0.106104E-10  0.113707E-04
  0.106231E-10  0.113672E-04
  0.106358E-10  0.113626E-04
  0.106485E-10  0.113572E-04
  0.106613E-10  0.113512E-04
  0.106740E-10  0.113446E-04
  0.106868E-10  0.113379E-04
  0.106995E-10  0.113312E-04
  0.107123E-10  0.113246E-04
  0.107251E-10  0.113185E-04
  0.107379E-10  0.113130E-04
  0.107508E-10  0.113084E-04
  0.107636E-10  0.113048E-04
  0.107765E-10  0.113023E-04
  0.107894E-10  0.113013E-04
  0.108023E-10  0.113017E-04
  0.108152E-10  0.113038E-04
  0.108281E-10  0.113075E-04
  0.108411E-10  0.113130E-04
  0.108540E-10  0.113202E-04
  0.108670E-10  0.113292E-04
  0.108800E-10  0.113399E-04
  0.108930E-10  0.113523E-04
  0.109060E-10  0.113663E-04
  0.109190E-10  0.113818E-04
  0.109321E-10  0.113985E-04
  0.109452E-10  0.114164E-04
  0.109582E-10  0.114353E-04
  0.109713E-10  0.114550E-04
  0.109844E-10  0.114752E-04
  0.109976E-10  0.114957E-04
  0.110107E-10  0.115163E-04
  0.110239E-10  0.115368E-04
  0.110371E-10  0.115569E-04
  0.110503E-10  0.115763E-04
  0.110635E-10  0.115949E-04
  0.110767E-10  0.116125E-04
  0.110899E-10  0.116289E-04
  0.111032E-10  0.116438E-04
  0.111165E-10  0.116572E-04
  0.111297E-10  0.116690E-04
  0.111430E-10  0.116790E-04
  0.111564E-10  0.116871E-04
  0.111697E-10  0.116935E-04
  0.111831E-10  0.116980E-04
  0.111964E-10  0.117007E-04
  0.112098E-10  0.117017E-04
  0.112232E-10  0.117011E-04
  0.112366E-10  0.116990E-04
  0.112500E-10  0.116956E-04
  0.112635E-10  0.116910E-04
  0.112770E-10  0.116855E-04
  0.112904E-10  0.116792E-04
  0.113039E-10  0.116725E-04
  0.113174E-10  0.116656E-04
  0.113310E-10  0.116586E-04
  0.113445E-10  0.116520E-04
  0.113581E-10  0.116459E-04
  0.113716E-10  0.116405E-04
  0.113852E-10  0.116361E-04
  0.113989E-10  0.116330E-04
  0.114125E-10  0.116312E-04
  0.114261E-10  0.116311E-04
  0.114398E-10  0.116326E-04
  0.114534E-10  0.116359E-04
  0.114671E-10  0.116411E-04
  0.114808E-10  0.116482E-04
  0.114946E-10  0.116573E-04
  0.115083E-10  0.116682E-04
  0.115221E-10  0.116810E-04
  0.115358E-10  0.116954E-04
  0.115496E-10  0.117115E-04
  0.115634E-10  0.117289E-04
  0.115773E-10  0.117476E-04
  0.115911E-10  0.117673E-04
  0.116049E-10  0.117877E-04
  0.116188E-10  0.118086E-04
  0.116327E-10  0.118298E-04
  0.116466E-10  0.118509E-04
  0.116605E-10  0.118718E-04
  0.116745E-10  0.118920E-04
  0.116884E-10  0.119115E-04
  0.117024E-10  0.119299E-04
  0.117164E-10  0.119469E-04
  0.117304E-10  0.119625E-04
  0.117444E-10  0.119764E-04
  0.117584E-10  0.119885E-04
  0.117725E-10  0.119988E-04
  0.117866E-10  0.120070E-04
  0.118007E-10  0.120133E-04
  0.118148E-10  0.120176E-04
  0.118289E-10  0.120199E-04
  0.118430E-10  0.120204E-04
  0.118572E-10  0.120192E-04
  0.118714E-10  0.120164E-04
  0.118855E-10  0.120123E-04
  0.118997E-10  0.120071E-04
  0.119140E-10  0.120009E-04
  0.119282E-10  0.119942E-04
  0.119425E-10  0.119871E-04
  0.119567E-10  0.119799E-04
  0.119710E-10  0.119730E-04
  0.119853E-10  0.119667E-04
  0.119997E-10  0.119611E-04
  0.120140E-10  0.119566E-04
  0.120284E-10  0.119534E-04
  0.120428E-10  0.119517E-04
  0.120571E-10  0.119518E-04
  0.120716E-10  0.119537E-04
  0.120860E-10  0.119576E-04
  0.121004E-10  0.119635E-04
  0.121149E-10  0.119716E-04
  0.121294E-10  0.119817E-04
  0.121439E-10  0.119938E-04
  0.121584E-10  0.120078E-04
  0.121729E-10  0.120236E-04
  0.121875E-10  0.120411E-04
  0.122020E-10  0.120599E-04
  0.122166E-10  0.120798E-04
  0.122312E-10  0.121007E-04
  0.122459E-10  0.121221E-04
  0.122605E-10  0.121438E-04
  0.122751E-10  0.121655E-04
  0.122898E-10  0.121869E-04
  0.123045E-10  0.122077E-04
  0.123192E-10  0.122275E-04
  0.123339E-10  0.122461E-04
  0.123487E-10  0.122633E-04
  0.123634E-10  0.122789E-04
  0.123782E-10  0.122925E-04
  0.123930E-10  0.123042E-04
  0.124078E-10  0.123138E-04
  0.124227E-10  0.123213E-04
  0.124375E-10  0.123266E-04
  0.124524E-10  0.123298E-04
  0.124673E-10  0.123309E-04
  0.124822E-10  0.123302E-04
  0.124971E-10  0.123277E-04
  0.125120E-10  0.123237E-04
  0.125270E-10  0.123185E-04
  0.125419E-10  0.123122E-04
  0.125569E-10  0.123053E-04
  0.125719E-10  0.122980E-04
  0.125870E-10  0.122907E-04
  0.126020E-10  0.122837E-04
  0.126171E-10  0.122773E-04
  0.126322E-10  0.122718E-04
  0.126473E-10  0.122675E-04
  0.126624E-10  0.122648E-04
  0.126775E-10  0.122637E-04
  0.126927E-10  0.122646E-04
  0.127078E-10  0.122676E-04
  0.127230E-10  0.122727E-04
  0.127382E-10  0.122801E-04
  0.127535E-10  0.122898E-04
  0.127687E-10  0.123016E-04
  0.127840E-10  0.123155E-04
  0.127993E-10  0.123314E-04
  0.128145E-10  0.123491E-04
  0.128299E-10  0.123682E-04
  0.128452E-10  0.123887E-04
  0.128606E-10  0.124100E-04
  0.128759E-10  0.124320E-04
  0.128913E-10  0.124543E-04
  0.129067E-10  0.124766E-04
  0.129222E-10  0.124984E-04
  0.129376E-10  0.125194E-04
  0.129531E-10  0.125394E-04
  0.129685E-10  0.125580E-04
  0.129840E-10  0.125749E-04
  0.129996E-10  0.125899E-04
  0.130151E-10  0.126029E-04
  0.130307E-10  0.126136E-04
  0.130462E-10  0.126221E-04
  0.130618E-10  0.126282E-04
  0.130774E-10  0.126321E-04
  0.130931E-10  0.126337E-04
  0.131087E-10  0.126333E-04
  0.131244E-10  0.126309E-04
  0.131401E-10  0.126269E-04
  0.131558E-10  0.126216E-04
  0.131715E-10  0.126152E-04
  0.131873E-10  0.126080E-04
  0.132030E-10  0.126005E-04
  0.132188E-10  0.125931E-04
  0.132346E-10  0.125860E-04
  0.132504E-10  0.125797E-04
  0.132663E-10  0.125744E-04
  0.132821E-10  0.125706E-04
  0.132980E-10  0.125685E-04
  0.133139E-10  0.125684E-04
  0.133298E-10  0.125704E-04
  0.133457E-10  0.125747E-04
  0.133617E-10  0.125815E-04
  0.133777E-10  0.125906E-04
  0.133936E-10  0.126021E-04
  0.134097E-10  0.126159E-04
  0.134257E-10  0.126318E-04
  0.134417E-10  0.126497E-04
  0.134578E-10  0.126692E-04
  0.134739E-10  0.126901E-04
  0.134900E-10  0.127120E-04
  0.135061E-10  0.127346E-04
  0.135223E-10  0.127574E-04
  0.135384E-10  0.127802E-04
  0.135546E-10  0.128024E-04
  0.135708E-10  0.128236E-04
  0.135870E-10  0.128437E-04
  0.136033E-10  0.128621E-04
  0.136195E-10  0.128787E-04
  0.136358E-10  0.128931E-04
  0.136521E-10  0.129052E-04
  0.136684E-10  0.129150E-04
  0.136848E-10  0.129222E-04
  0.137011E-10  0.129269E-04
  0.137175E-10  0.129292E-04
  0.137339E-10  0.129293E-04
  0.137503E-10  0.129273E-04
  0.137667E-10  0.129234E-04
  0.137832E-10  0.129181E-04
  0.137997E-10  0.129116E-04
  0.138162E-10  0.129043E-04
  0.138327E-10  0.128966E-04
  0.138492E-10  0.128890E-04
  0.138658E-10  0.128818E-04
  0.138823E-10  0.128755E-04
  0.138989E-10  0.128705E-04
  0.139156E-10  0.128670E-04
  0.139322E-10  0.128655E-04
  0.139488E-10  0.128662E-04
  0.139655E-10  0.128692E-04
  0.139822E-10  0.128747E-04
  0.139989E-10  0.128829E-04
  0.140157E-10  0.128936E-04
  0.140324E-10  0.129068E-04
  0.140492E-10  0.129224E-04
  0.140660E-10  0.129401E-04
  0.140828E-10  0.129596E-04
  0.140996E-10  0.129808E-04
  0.141165E-10  0.130030E-04
  0.141333E-10  0.130261E-04
  0.141502E-10  0.130494E-04
  0.141671E-10  0.130727E-04
  0.141841E-10  0.130953E-04
  0.142010E-10  0.131170E-04
  0.142180E-10  0.131374E-04
  0.142350E-10  0.131559E-04
  0.142520E-10  0.131724E-04
  0.142691E-10  0.131866E-04
  0.142861E-10  0.131983E-04
  0.143032E-10  0.132073E-04
  0.143203E-10  0.132137E-04
  0.143374E-10  0.132175E-04
  0.143545E-10  0.132187E-04
  0.143717E-10  0.132176E-04
  0.143889E-10  0.132144E-04
  0.144061E-10  0.132095E-04
  0.144233E-10  0.132032E-04
  0.144405E-10  0.131959E-04
  0.144578E-10  0.131881E-04
  0.144751E-10  0.131803E-04
  0.144924E-10  0.131729E-04
  0.145097E-10  0.131663E-04
  0.145270E-10  0.131611E-04
  0.145444E-10  0.131575E-04
  0.145618E-10  0.131560E-04
  0.145792E-10  0.131569E-04
  0.145966E-10  0.131603E-04
  0.146141E-10  0.131664E-04
  0.146315E-10  0.131753E-04
  0.146490E-10  0.131869E-04
  0.146665E-10  0.132011E-04
  0.146841E-10  0.132178E-04
  0.147016E-10  0.132367E-04
  0.147192E-10  0.132574E-04
  0.147368E-10  0.132796E-04
  0.147544E-10  0.133029E-04
  0.147720E-10  0.133266E-04
  0.147897E-10  0.133505E-04
  0.148074E-10  0.133739E-04
  0.148251E-10  0.133964E-04
  0.148428E-10  0.134176E-04
  0.148605E-10  0.134370E-04
  0.148783E-10  0.134542E-04
  0.148961E-10  0.134690E-04
  0.149139E-10  0.134811E-04
  0.149317E-10  0.134905E-04
  0.149496E-10  0.134969E-04
  0.149674E-10  0.135006E-04
  0.149853E-10  0.135016E-04
  0.150032E-10  0.135002E-04
  0.150212E-10  0.134966E-04
  0.150391E-10  0.134912E-04
  0.150571E-10  0.134845E-04
  0.150751E-10  0.134768E-04
  0.150931E-10  0.134688E-04
  0.151112E-10  0.134609E-04
  0.151292E-10  0.134536E-04
  0.151473E-10  0.134475E-04
  0.151654E-10  0.134431E-04
  0.151835E-10  0.134406E-04
  0.152017E-10  0.134405E-04
  0.152198E-10  0.134431E-04
  0.152380E-10  0.134486E-04
  0.152563E-10  0.134569E-04
  0.152745E-10  0.134682E-04
  0.152927E-10  0.134823E-04
  0.153110E-10  0.134991E-04
  0.153293E-10  0.135182E-04
  0.153477E-10  0.135393E-04
  0.153660E-10  0.135620E-04
  0.153844E-10  0.135857E-04
  0.154028E-10  0.136100E-04
  0.154212E-10  0.136344E-04
  0.154396E-10  0.136582E-04
  0.154581E-10  0.136809E-04
  0.154765E-10  0.137020E-04
  0.154950E-10  0.137212E-04
  0.155135E-10  0.137379E-04
  0.155321E-10  0.137520E-04
  0.155507E-10  0.137632E-04
  0.155692E-10  0.137713E-04
  0.155879E-10  0.137765E-04
  0.156065E-10  0.137787E-04
  0.156251E-10  0.137782E-04
  0.156438E-10  0.137753E-04
  0.156625E-10  0.137703E-04
  0.156812E-10  0.137637E-04
  0.157000E-10  0.137561E-04
  0.157187E-10  0.137479E-04
  0.157375E-10  0.137398E-04
  0.157563E-10  0.137323E-04
  0.157752E-10  0.137260E-04
  0.157940E-10  0.137214E-04
  0.158129E-10  0.137189E-04
  0.158318E-10  0.137190E-04
  0.158507E-10  0.137219E-04
  0.158697E-10  0.137279E-04
  0.158887E-10  0.137370E-04
  0.159076E-10  0.137491E-04
  0.159267E-10  0.137643E-04
  0.159457E-10  0.137821E-04
  0.159648E-10  0.138024E-04
  0.159838E-10  0.138246E-04
  0.160029E-10  0.138483E-04
  0.160221E-10  0.138729E-04
  0.160412E-10  0.138977E-04
  0.160604E-10  0.139223E-04
  0.160796E-10  0.139460E-04
  0.160988E-10  0.139682E-04
  0.161181E-10  0.139885E-04
  0.161373E-10  0.140063E-04
  0.161566E-10  0.140214E-04
  0.161759E-10  0.140334E-04
  0.161953E-10  0.140422E-04
  0.162146E-10  0.140478E-04
  0.162340E-10  0.140503E-04
  0.162534E-10  0.140499E-04
  0.162728E-10  0.140470E-04
  0.162923E-10  0.140418E-04
  0.163118E-10  0.140350E-04
  0.163313E-10  0.140271E-04
  0.163508E-10  0.140188E-04
  0.163703E-10  0.140106E-04
  0.163899E-10  0.140032E-04
  0.164095E-10  0.139972E-04
  0.164291E-10  0.139931E-04
  0.164487E-10  0.139915E-04
  0.164684E-10  0.139927E-04
  0.164881E-10  0.139970E-04
  0.165078E-10  0.140046E-04
  0.165275E-10  0.140155E-04
  0.165473E-10  0.140296E-04
  0.165670E-10  0.140467E-04
  0.165868E-10  0.140665E-04
  0.166067E-10  0.140885E-04
  0.166265E-10  0.141123E-04
  0.166464E-10  0.141372E-04
  0.166663E-10  0.141625E-04
  0.166862E-10  0.141877E-04
  0.167062E-10  0.142120E-04
  0.167261E-10  0.142348E-04
  0.167461E-10  0.142556E-04
  0.167661E-10  0.142738E-04
  0.167862E-10  0.142890E-04
  0.168062E-10  0.143011E-04
  0.168263E-10  0.143097E-04
  0.168464E-10  0.143150E-04
  0.168666E-10  0.143170E-04
  0.168867E-10  0.143160E-04
  0.169069E-10  0.143123E-04
  0.169271E-10  0.143066E-04
  0.169474E-10  0.142992E-04
  0.169676E-10  0.142909E-04
  0.169879E-10  0.142824E-04
  0.170082E-10  0.142743E-04
  0.170285E-10  0.142674E-04
  0.170489E-10  0.142623E-04
  0.170693E-10  0.142595E-04
  0.170897E-10  0.142595E-04
  0.171101E-10  0.142627E-04
  0.171306E-10  0.142694E-04
  0.171510E-10  0.142795E-04
  0.171715E-10  0.142931E-04
  0.171921E-10  0.143099E-04
  0.172126E-10  0.143297E-04
  0.172332E-10  0.143519E-04
  0.172538E-10  0.143760E-04
  0.172744E-10  0.144012E-04
  0.172951E-10  0.144271E-04
  0.173157E-10  0.144527E-04
  0.173364E-10  0.144774E-04
  0.173571E-10  0.145004E-04
  0.173779E-10  0.145213E-04
  0.173987E-10  0.145393E-04
  0.174195E-10  0.145542E-04
  0.174403E-10  0.145656E-04
  0.174611E-10  0.145734E-04
  0.174820E-10  0.145777E-04
  0.175029E-10  0.145786E-04
  0.175238E-10  0.145765E-04
  0.175448E-10  0.145717E-04
  0.175657E-10  0.145650E-04
  0.175867E-10  0.145570E-04
  0.176077E-10  0.145483E-04
  0.176288E-10  0.145398E-04
  0.176499E-10  0.145322E-04
  0.176710E-10  0.145263E-04
  0.176921E-10  0.145227E-04
  0.177132E-10  0.145219E-04
  0.177344E-10  0.145244E-04
  0.177556E-10  0.145304E-04
  0.177768E-10  0.145402E-04
  0.177981E-10  0.145536E-04
  0.178193E-10  0.145705E-04
  0.178406E-10  0.145905E-04
  0.178620E-10  0.146130E-04
  0.178833E-10  0.146376E-04
  0.179047E-10  0.146634E-04
  0.179261E-10  0.146897E-04
  0.179475E-10  0.147157E-04
  0.179690E-10  0.147406E-04
  0.179905E-10  0.147636E-04
  0.180120E-10  0.147842E-04
  0.180335E-10  0.148017E-04
  0.180550E-10  0.148158E-04
  0.180766E-10  0.148261E-04
  0.180982E-10  0.148327E-04
  0.181199E-10  0.148356E-04
  0.181415E-10  0.148350E-04
  0.181632E-10  0.148315E-04
  0.181849E-10  0.148255E-04
  0.182067E-10  0.148178E-04
  0.182284E-10  0.148091E-04
  0.182502E-10  0.148003E-04
  0.182720E-10  0.147922E-04
  0.182939E-10  0.147857E-04
  0.183157E-10  0.147813E-04
  0.183376E-10  0.147798E-04
  0.183595E-10  0.147817E-04
  0.183815E-10  0.147873E-04
  0.184035E-10  0.147968E-04
  0.184255E-10  0.148102E-04
  0.184475E-10  0.148272E-04
  0.184695E-10  0.148475E-04
  0.184916E-10  0.148705E-04
  0.185137E-10  0.148956E-04
  0.185358E-10  0.149219E-04
  0.185580E-10  0.149487E-04
  0.185802E-10  0.149750E-04
  0.186024E-10  0.150000E-04
  0.186246E-10  0.150229E-04
  0.186469E-10  0.150430E-04
  0.186692E-10  0.150598E-04
  0.186915E-10  0.150728E-04
  0.187138E-10  0.150819E-04
  0.187362E-10  0.150871E-04
  0.187586E-10  0.150884E-04
  0.187810E-10  0.150863E-04
  0.188035E-10  0.150813E-04
  0.188259E-10  0.150742E-04
  0.188484E-10  0.150657E-04
  0.188710E-10  0.150567E-04
  0.188935E-10  0.150481E-04
  0.189161E-10  0.150409E-04
  0.189387E-10  0.150357E-04
  0.189614E-10  0.150335E-04
  0.189840E-10  0.150346E-04
  0.190067E-10  0.150397E-04
  0.190294E-10  0.150487E-04
  0.190522E-10  0.150619E-04
  0.190749E-10  0.150790E-04
  0.190977E-10  0.150995E-04
  0.191206E-10  0.151229E-04
  0.191434E-10  0.151484E-04
  0.191663E-10  0.151752E-04
  0.191892E-10  0.152024E-04
  0.192122E-10  0.152291E-04
  0.192351E-10  0.152542E-04
  0.192581E-10  0.152770E-04
  0.192811E-10  0.152967E-04
  0.193042E-10  0.153128E-04
  0.193273E-10  0.153249E-04
  0.193504E-10  0.153328E-04
  0.193735E-10  0.153365E-04
  0.193966E-10  0.153364E-04
  0.194198E-10  0.153330E-04
  0.194430E-10  0.153268E-04
  0.194663E-10  0.153187E-04
  0.194895E-10  0.153097E-04
  0.195128E-10  0.153007E-04
  0.195362E-10  0.152927E-04
  0.195595E-10  0.152866E-04
  0.195829E-10  0.152832E-04
  0.196063E-10  0.152833E-04
  0.196297E-10  0.152873E-04
  0.196532E-10  0.152956E-04
  0.196767E-10  0.153082E-04
  0.197002E-10  0.153249E-04
  0.197238E-10  0.153453E-04
  0.197473E-10  0.153688E-04
  0.197709E-10  0.153946E-04
  0.197946E-10  0.154218E-04
  0.198182E-10  0.154495E-04
  0.198419E-10  0.154765E-04
  0.198656E-10  0.155019E-04
  0.198894E-10  0.155248E-04
  0.199132E-10  0.155444E-04
  0.199370E-10  0.155601E-04
  0.199608E-10  0.155716E-04
  0.199846E-10  0.155786E-04
  0.200085E-10  0.155814E-04
  0.200325E-10  0.155803E-04
  0.200564E-10  0.155758E-04
  0.200804E-10  0.155687E-04
  0.201044E-10  0.155600E-04
  0.201284E-10  0.155508E-04
  0.201525E-10  0.155419E-04
  0.201765E-10  0.155346E-04
  0.202007E-10  0.155297E-04
  0.202248E-10  0.155282E-04
  0.202490E-10  0.155305E-04
  0.202732E-10  0.155373E-04
  0.202974E-10  0.155485E-04
  0.203217E-10  0.155641E-04
  0.203460E-10  0.155838E-04
  0.203703E-10  0.156069E-04
  0.203946E-10  0.156327E-04
  0.204190E-10  0.156602E-04
  0.204434E-10  0.156883E-04
  0.204679E-10  0.157159E-04
  0.204923E-10  0.157419E-04
  0.205168E-10  0.157653E-04
  0.205413E-10  0.157854E-04
  0.205659E-10  0.158014E-04
  0.205905E-10  0.158129E-04
  0.206151E-10  0.158198E-04
  0.206397E-10  0.158222E-04
  0.206644E-10  0.158206E-04
  0.206891E-10  0.158156E-04
  0.207138E-10  0.158081E-04
  0.207386E-10  0.157990E-04
  0.207634E-10  0.157896E-04
  0.207882E-10  0.157810E-04
  0.208130E-10  0.157742E-04
  0.208379E-10  0.157703E-04
  0.208628E-10  0.157702E-04
  0.208878E-10  0.157743E-04
  0.209127E-10  0.157831E-04
  0.209377E-10  0.157966E-04
  0.209628E-10  0.158145E-04
  0.209878E-10  0.158365E-04
  0.210129E-10  0.158615E-04
  0.210380E-10  0.158889E-04
  0.210632E-10  0.159173E-04
  0.210883E-10  0.159456E-04
  0.211135E-10  0.159726E-04
  0.211388E-10  0.159973E-04
  0.211641E-10  0.160186E-04
  0.211894E-10  0.160358E-04
  0.212147E-10  0.160484E-04
  0.212400E-10  0.160562E-04
  0.212654E-10  0.160593E-04
  0.212908E-10  0.160581E-04
  0.213163E-10  0.160532E-04
  0.213418E-10  0.160457E-04
  0.213673E-10  0.160365E-04
  0.213928E-10  0.160270E-04
  0.214184E-10  0.160183E-04
  0.214440E-10  0.160116E-04
  0.214696E-10  0.160080E-04
  0.214953E-10  0.160084E-04
  0.215210E-10  0.160134E-04
  0.215467E-10  0.160232E-04
  0.215725E-10  0.160380E-04
  0.215982E-10  0.160573E-04
  0.216241E-10  0.160805E-04
  0.216499E-10  0.161068E-04
  0.216758E-10  0.161351E-04
  0.217017E-10  0.161640E-04
  0.217276E-10  0.161924E-04
  0.217536E-10  0.162189E-04
  0.217796E-10  0.162425E-04
  0.218056E-10  0.162621E-04
  0.218317E-10  0.162772E-04
  0.218578E-10  0.162873E-04
  0.218839E-10  0.162923E-04
  0.219101E-10  0.162927E-04
  0.219363E-10  0.162890E-04
  0.219625E-10  0.162822E-04
  0.219887E-10  0.162732E-04
  0.220150E-10  0.162635E-04
  0.220413E-10  0.162544E-04
  0.220677E-10  0.162470E-04
  0.220941E-10  0.162428E-04
  0.221205E-10  0.162425E-04
  0.221469E-10  0.162470E-04
  0.221734E-10  0.162565E-04
  0.221999E-10  0.162711E-04
  0.222264E-10  0.162906E-04
  0.222530E-10  0.163142E-04
  0.222796E-10  0.163409E-04
  0.223062E-10  0.163696E-04
  0.223329E-10  0.163990E-04
  0.223596E-10  0.164276E-04
  0.223863E-10  0.164541E-04
  0.224131E-10  0.164774E-04
  0.224399E-10  0.164965E-04
  0.224667E-10  0.165106E-04
  0.224935E-10  0.165196E-04
  0.225204E-10  0.165233E-04
  0.225473E-10  0.165223E-04
  0.225743E-10  0.165174E-04
  0.226013E-10  0.165095E-04
  0.226283E-10  0.165000E-04
  0.226553E-10  0.164902E-04
  0.226824E-10  0.164816E-04
  0.227095E-10  0.164755E-04
  0.227367E-10  0.164732E-04
  0.227638E-10  0.164754E-04
